x,intensity
0.000000000000000000e+00,-2.732127904891967773e-04
2.500625269021838903e-04,-2.727657556533813477e-04
5.001250538043677807e-04,-2.722889184951782227e-04
7.501875516027212143e-04,-2.718120813369750977e-04
1.000250107608735561e-03,-2.714246511459350586e-04
1.250312663614749908e-03,-2.709478139877319336e-04
1.500375103205442429e-03,-2.704560756683349609e-04
1.750437659211456776e-03,-2.700239419937133789e-04
2.000500215217471123e-03,-2.696812152862548828e-04
2.250562654808163643e-03,-2.691596746444702148e-04
2.500625327229499817e-03,-2.686828374862670898e-04
2.750687766820192337e-03,-2.682954072952270508e-04
3.000750206410884857e-03,-2.678930759429931641e-04
3.250812878832221031e-03,-2.674013376235961914e-04
3.500875318422913551e-03,-2.669692039489746094e-04
3.750937990844249725e-03,-2.665072679519653320e-04
4.001000430434942245e-03,-2.661198377609252930e-04
4.251062870025634766e-03,-2.656728029251098633e-04
4.501125309616327286e-03,-2.652257680892944336e-04
4.751188214868307114e-03,-2.647638320922851562e-04
5.001250654458999634e-03,-2.643465995788574219e-04
5.251313094049692154e-03,-2.640187740325927734e-04
5.501375533640384674e-03,-2.634674310684204102e-04
5.751437973231077194e-03,-2.631992101669311523e-04
6.001500412821769714e-03,-2.626925706863403320e-04
6.251563318073749542e-03,-2.622157335281372070e-04
6.501625757664442062e-03,-2.618879079818725586e-04
6.751688197255134583e-03,-2.613961696624755859e-04
7.001750636845827103e-03,-2.609640359878540039e-04
7.251813076436519623e-03,-2.606958150863647461e-04
7.501875981688499451e-03,-2.602040767669677734e-04
7.751938421279191971e-03,-2.598017454147338867e-04
8.002000860869884491e-03,-2.594739198684692383e-04
8.252063766121864319e-03,-2.590566873550415039e-04
8.502125740051269531e-03,-2.585053443908691406e-04
8.752188645303249359e-03,-2.582520246505737305e-04
9.002250619232654572e-03,-2.577453851699829102e-04
9.252313524484634399e-03,-2.574324607849121094e-04
9.502376429736614227e-03,-2.570450305938720703e-04
9.752438403666019440e-03,-2.565681934356689453e-04
1.000250130891799927e-02,-2.562403678894042969e-04
1.025256328284740448e-02,-2.558976411819458008e-04
1.050262618809938431e-02,-2.554804086685180664e-04
1.075268909335136414e-02,-2.550482749938964844e-04
1.100275106728076935e-02,-2.546906471252441406e-04
1.125281397253274918e-02,-2.543926239013671875e-04
1.150287594646215439e-02,-2.538859844207763672e-04
1.175293885171413422e-02,-2.536326646804809570e-04
1.200300082564353943e-02,-2.531707286834716797e-04
1.225306373089551926e-02,-2.528727054595947266e-04
1.250312663614749908e-02,-2.524554729461669922e-04
1.275318861007690430e-02,-2.521276473999023438e-04
1.300325151532888412e-02,-2.517402172088623047e-04
1.325331348925828934e-02,-2.513378858566284180e-04
1.350337639451026917e-02,-2.510249614715576172e-04
1.375343929976224899e-02,-2.506524324417114258e-04
1.400350127369165421e-02,-2.502799034118652344e-04
1.425356417894363403e-02,-2.499371767044067383e-04
1.450362615287303925e-02,-2.496093511581420898e-04
1.475368905812501907e-02,-2.492368221282958984e-04
1.500375196337699890e-02,-2.488344907760620117e-04
1.525381393730640411e-02,-2.485066652297973633e-04
1.550387684255838394e-02,-2.481639385223388672e-04
1.575393974781036377e-02,-2.478808164596557617e-04
1.600400172173976898e-02,-2.475380897521972656e-04
1.625406369566917419e-02,-2.471953630447387695e-04
1.650412753224372864e-02,-2.467930316925048828e-04
1.675418950617313385e-02,-2.465099096298217773e-04
1.700425148010253906e-02,-2.460777759552001953e-04
1.725431345403194427e-02,-2.458393573760986328e-04
1.750437729060649872e-02,-2.454519271850585938e-04
1.775443926453590393e-02,-2.451539039611816406e-04
1.800450123846530914e-02,-2.447664737701416016e-04
1.825456507503986359e-02,-2.444386482238769531e-04
1.850462704896926880e-02,-2.442300319671630859e-04
1.875468902289867401e-02,-2.438873052597045898e-04
1.900475285947322845e-02,-2.435594797134399414e-04
1.925481483340263367e-02,-2.432316541671752930e-04
1.950487680733203888e-02,-2.429634332656860352e-04
1.975493878126144409e-02,-2.426058053970336914e-04
2.000500261783599854e-02,-2.422779798507690430e-04
2.025506459176540375e-02,-2.419352531433105469e-04
2.050512656569480896e-02,-2.416223287582397461e-04
2.075519040226936340e-02,-2.413094043731689453e-04
2.100525237619876862e-02,-2.410560846328735352e-04
2.125531435012817383e-02,-2.407878637313842773e-04
2.150537818670272827e-02,-2.404004335403442383e-04
2.175544016063213348e-02,-2.401620149612426758e-04
2.200550213456153870e-02,-2.398788928985595703e-04
2.225556410849094391e-02,-2.395212650299072266e-04
2.250562794506549835e-02,-2.392679452896118164e-04
2.275568991899490356e-02,-2.389103174209594727e-04
2.300575189292430878e-02,-2.387017011642456055e-04
2.325581572949886322e-02,-2.384632825851440430e-04
2.350587770342826843e-02,-2.380758523941040039e-04
2.375593967735767365e-02,-2.378672361373901367e-04
2.400600165128707886e-02,-2.375394105911254883e-04
2.425606548786163330e-02,-2.372115850448608398e-04
2.450612746179103851e-02,-2.369880676269531250e-04
2.475618943572044373e-02,-2.366453409194946289e-04
2.500625327229499817e-02,-2.364516258239746094e-04
2.525631524622440338e-02,-2.361387014389038086e-04
2.550637722015380859e-02,-2.359002828598022461e-04
2.575644105672836304e-02,-2.356022596359252930e-04
2.600650303065776825e-02,-2.353042364120483398e-04
2.625656500458717346e-02,-2.350956201553344727e-04
2.650662697851657867e-02,-2.347677946090698242e-04
2.675669081509113312e-02,-2.345293760299682617e-04
2.700675278902053833e-02,-2.342313528060913086e-04
2.725681476294994354e-02,-2.339333295822143555e-04
2.750687859952449799e-02,-2.337545156478881836e-04
2.775694057345390320e-02,-2.335160970687866211e-04
2.800700254738330841e-02,-2.333074808120727539e-04
2.825706638395786285e-02,-2.329647541046142578e-04
2.850712835788726807e-02,-2.327263355255126953e-04
2.875719033181667328e-02,-2.325028181076049805e-04
2.900725230574607849e-02,-2.322345972061157227e-04
2.925731614232063293e-02,-2.319067716598510742e-04
2.950737811625003815e-02,-2.317130565643310547e-04
2.975744009017944336e-02,-2.315342426300048828e-04
3.000750392675399780e-02,-2.313107252120971680e-04
3.025756590068340302e-02,-2.309978008270263672e-04
3.050762787461280823e-02,-2.307593822479248047e-04
3.075769171118736267e-02,-2.306103706359863281e-04
3.100775368511676788e-02,-2.303421497344970703e-04
3.125781565904617310e-02,-2.301186323165893555e-04
3.150787949562072754e-02,-2.298504114151000977e-04
3.175793960690498352e-02,-2.296268939971923828e-04
3.200800344347953796e-02,-2.294629812240600586e-04
3.225806728005409241e-02,-2.291500568389892578e-04
3.250812739133834839e-02,-2.289265394210815430e-04
3.275819122791290283e-02,-2.287328243255615234e-04
3.300825506448745728e-02,-2.285242080688476562e-04
3.325831517577171326e-02,-2.282112836837768555e-04
3.350837901234626770e-02,-2.281367778778076172e-04
3.375844284892082214e-02,-2.278089523315429688e-04
3.400850296020507812e-02,-2.276003360748291016e-04
3.425856679677963257e-02,-2.274960279464721680e-04
3.450862690806388855e-02,-2.271831035614013672e-04
3.475869074463844299e-02,-2.270489931106567383e-04
3.500875458121299744e-02,-2.268701791763305664e-04
3.525881469249725342e-02,-2.266317605972290039e-04
3.550887852907180786e-02,-2.264529466629028320e-04
3.575894236564636230e-02,-2.261847257614135742e-04
3.600900247693061829e-02,-2.259910106658935547e-04
3.625906631350517273e-02,-2.257674932479858398e-04
3.650913015007972717e-02,-2.256184816360473633e-04
3.675919026136398315e-02,-2.254098653793334961e-04
3.700925409793853760e-02,-2.252757549285888672e-04
3.725931793451309204e-02,-2.250522375106811523e-04
3.750937804579734802e-02,-2.249181270599365234e-04
3.775944188237190247e-02,-2.247095108032226562e-04
3.800950571894645691e-02,-2.245157957077026367e-04
3.825956583023071289e-02,-2.242326736450195312e-04
3.850962966680526733e-02,-2.241581678390502930e-04
3.875969350337982178e-02,-2.239346504211425781e-04
3.900975361466407776e-02,-2.237409353256225586e-04
3.925981745123863220e-02,-2.234876155853271484e-04
3.950987756252288818e-02,-2.234429121017456055e-04
3.975994139909744263e-02,-2.232342958450317383e-04
4.001000523567199707e-02,-2.230107784271240234e-04
4.026006534695625305e-02,-2.228766679763793945e-04
4.051012918353080750e-02,-2.226978540420532227e-04
4.076019302010536194e-02,-2.225190401077270508e-04
4.101025313138961792e-02,-2.223551273345947266e-04
4.126031696796417236e-02,-2.221912145614624023e-04
4.151038080453872681e-02,-2.220422029495239258e-04
4.176044091582298279e-02,-2.219080924987792969e-04
4.201050475239753723e-02,-2.217441797256469727e-04
4.226056858897209167e-02,-2.215355634689331055e-04
4.251062870025634766e-02,-2.214163541793823242e-04
4.276069253683090210e-02,-2.212971448898315430e-04
4.301075637340545654e-02,-2.211630344390869141e-04
4.326081648468971252e-02,-2.209097146987915039e-04
4.351088032126426697e-02,-2.208352088928222656e-04
4.376094043254852295e-02,-2.207159996032714844e-04
4.401100426912307739e-02,-2.204924821853637695e-04
4.426106810569763184e-02,-2.203136682510375977e-04
4.451112821698188782e-02,-2.202987670898437500e-04
4.476119205355644226e-02,-2.200752496719360352e-04
4.501125589013099670e-02,-2.199113368988037109e-04
4.526131600141525269e-02,-2.198666334152221680e-04
4.551137983798980713e-02,-2.196878194808959961e-04
4.576144367456436157e-02,-2.195388078689575195e-04
4.601150378584861755e-02,-2.194195985794067383e-04
4.626156762242317200e-02,-2.193450927734375000e-04
4.651163145899772644e-02,-2.191513776779174805e-04
4.676169157028198242e-02,-2.190619707107543945e-04
4.701175540685653687e-02,-2.188980579376220703e-04
4.726181924343109131e-02,-2.188086509704589844e-04
4.751187935471534729e-02,-2.186894416809082031e-04
4.776194319128990173e-02,-2.185255289077758789e-04
4.801200330257415771e-02,-2.183765172958374023e-04
4.826206713914871216e-02,-2.183318138122558594e-04
4.851213097572326660e-02,-2.181977033615112305e-04
4.876219108700752258e-02,-2.180784940719604492e-04
4.901225492358207703e-02,-2.178996801376342773e-04
4.926231876015663147e-02,-2.179294824600219727e-04
4.951237887144088745e-02,-2.177506685256958008e-04
4.976244270801544189e-02,-2.176612615585327148e-04
5.001250654458999634e-02,-2.174377441406250000e-04
5.026256665587425232e-02,-2.173930406570434570e-04
5.051263049244880676e-02,-2.172738313674926758e-04
5.076269432902336121e-02,-2.172142267227172852e-04
5.101275444030761719e-02,-2.170801162719726562e-04
5.126281827688217163e-02,-2.170354127883911133e-04
5.151288211345672607e-02,-2.169758081436157227e-04
5.176294222474098206e-02,-2.167969942092895508e-04
5.201300606131553650e-02,-2.167522907257080078e-04
5.226306989789009094e-02,-2.167075872421264648e-04
5.251313000917434692e-02,-2.165287733078002930e-04
5.276319384574890137e-02,-2.164393663406372070e-04
5.301325395703315735e-02,-2.162903547286987305e-04
5.326331779360771179e-02,-2.162605524063110352e-04
5.351338163018226624e-02,-2.161264419555664062e-04
5.376344174146652222e-02,-2.160668373107910156e-04
5.401350557804107666e-02,-2.160072326660156250e-04
5.426356941461563110e-02,-2.159625291824340820e-04
5.451362952589988708e-02,-2.158731222152709961e-04
5.476369336247444153e-02,-2.159029245376586914e-04
5.501375719904899597e-02,-2.157241106033325195e-04
5.526381731033325195e-02,-2.156496047973632812e-04
5.551388114690780640e-02,-2.156347036361694336e-04
5.576394498348236084e-02,-2.155154943466186523e-04
5.601400509476661682e-02,-2.153366804122924805e-04
5.626406893134117126e-02,-2.153962850570678711e-04
5.651413276791572571e-02,-2.152621746063232422e-04
5.676419287919998169e-02,-2.152174711227416992e-04
5.701425671577453613e-02,-2.151727676391601562e-04
5.726431682705879211e-02,-2.150982618331909180e-04
5.751438066363334656e-02,-2.150982618331909180e-04
5.776444450020790100e-02,-2.150088548660278320e-04
5.801450461149215698e-02,-2.149641513824462891e-04
5.826456844806671143e-02,-2.148896455764770508e-04
5.851463228464126587e-02,-2.147704362869262695e-04
5.876469239592552185e-02,-2.147704362869262695e-04
5.901475623250007629e-02,-2.147108316421508789e-04
5.926482006907463074e-02,-2.147108316421508789e-04
5.951488018035888672e-02,-2.146512269973754883e-04
5.976494401693344116e-02,-2.145171165466308594e-04
6.001500785350799561e-02,-2.144873142242431641e-04
6.026506796479225159e-02,-2.144426107406616211e-04
6.051513180136680603e-02,-2.143830060958862305e-04
6.076519563794136047e-02,-2.144426107406616211e-04
6.101525574922561646e-02,-2.143234014511108398e-04
6.126531958580017090e-02,-2.142935991287231445e-04
6.151538342237472534e-02,-2.142190933227539062e-04
6.176544353365898132e-02,-2.142190933227539062e-04
6.201550737023353577e-02,-2.141296863555908203e-04
6.226556748151779175e-02,-2.141147851943969727e-04
6.251563131809234619e-02,-2.141147851943969727e-04
6.276569515466690063e-02,-2.140849828720092773e-04
6.301575899124145508e-02,-2.140551805496215820e-04
6.326582282781600952e-02,-2.140104770660400391e-04
6.351587921380996704e-02,-2.139806747436523438e-04
6.376594305038452148e-02,-2.140104770660400391e-04
6.401600688695907593e-02,-2.139359712600708008e-04
6.426607072353363037e-02,-2.139359712600708008e-04
6.451613456010818481e-02,-2.139061689376831055e-04
6.476619094610214233e-02,-2.138167619705200195e-04
6.501625478267669678e-02,-2.138614654541015625e-04
6.526631861925125122e-02,-2.139657735824584961e-04
6.551638245582580566e-02,-2.137869596481323242e-04
6.576644629240036011e-02,-2.137869596481323242e-04
6.601651012897491455e-02,-2.137720584869384766e-04
6.626656651496887207e-02,-2.137422561645507812e-04
6.651663035154342651e-02,-2.138614654541015625e-04
6.676669418811798096e-02,-2.138167619705200195e-04
6.701675802469253540e-02,-2.137124538421630859e-04
6.726682186126708984e-02,-2.137869596481323242e-04
6.751688569784164429e-02,-2.137869596481323242e-04
6.776694208383560181e-02,-2.137422561645507812e-04
6.801700592041015625e-02,-2.137571573257446289e-04
6.826706975698471069e-02,-2.137422561645507812e-04
6.851713359355926514e-02,-2.137422561645507812e-04
6.876719743013381958e-02,-2.136975526809692383e-04
6.901725381612777710e-02,-2.137869596481323242e-04
6.926731765270233154e-02,-2.138167619705200195e-04
6.951738148927688599e-02,-2.137422561645507812e-04
6.976744532585144043e-02,-2.138465642929077148e-04
7.001750916242599487e-02,-2.138018608093261719e-04
7.026757299900054932e-02,-2.138316631317138672e-04
7.051762938499450684e-02,-2.138614654541015625e-04
7.076769322156906128e-02,-2.138763666152954102e-04
7.101775705814361572e-02,-2.138018608093261719e-04
7.126782089471817017e-02,-2.138763666152954102e-04
7.151788473129272461e-02,-2.138465642929077148e-04
7.176794856786727905e-02,-2.139210700988769531e-04
7.201800495386123657e-02,-2.138912677764892578e-04
7.226806879043579102e-02,-2.139061689376831055e-04
7.251813262701034546e-02,-2.139955759048461914e-04
7.276819646358489990e-02,-2.139955759048461914e-04
7.301826030015945435e-02,-2.140253782272338867e-04
7.326831668615341187e-02,-2.139508724212646484e-04
7.351838052272796631e-02,-2.140849828720092773e-04
7.376844435930252075e-02,-2.141147851943969727e-04
7.401850819587707520e-02,-2.141743898391723633e-04
7.426857203245162964e-02,-2.141743898391723633e-04
7.451863586902618408e-02,-2.141296863555908203e-04
7.476869225502014160e-02,-2.141892910003662109e-04
7.501875609159469604e-02,-2.142339944839477539e-04
7.526881992816925049e-02,-2.143234014511108398e-04
7.551888376474380493e-02,-2.143234014511108398e-04
7.576894760131835938e-02,-2.144128084182739258e-04
7.601901143789291382e-02,-2.143979072570800781e-04
7.626906782388687134e-02,-2.143383026123046875e-04
7.651913166046142578e-02,-2.145022153854370117e-04
7.676919549703598022e-02,-2.145320177078247070e-04
7.701925933361053467e-02,-2.146214246749877930e-04
7.726932317018508911e-02,-2.145469188690185547e-04
7.751938700675964355e-02,-2.146363258361816406e-04
7.776944339275360107e-02,-2.147406339645385742e-04
7.801950722932815552e-02,-2.147704362869262695e-04
7.826957106590270996e-02,-2.148002386093139648e-04
7.851963490247726440e-02,-2.148896455764770508e-04
7.876969873905181885e-02,-2.148896455764770508e-04
7.901975512504577637e-02,-2.149641513824462891e-04
7.926981896162033081e-02,-2.149790525436401367e-04
7.951988279819488525e-02,-2.151280641555786133e-04
7.976994663476943970e-02,-2.150684595108032227e-04
8.002001047134399414e-02,-2.151727676391601562e-04
8.027007430791854858e-02,-2.153068780899047852e-04
8.052013069391250610e-02,-2.153068780899047852e-04
8.077019453048706055e-02,-2.154111862182617188e-04
8.102025836706161499e-02,-2.155154943466186523e-04
8.127032220363616943e-02,-2.155154943466186523e-04
8.152038604021072388e-02,-2.156049013137817383e-04
8.177044987678527832e-02,-2.156645059585571289e-04
8.202050626277923584e-02,-2.156347036361694336e-04
8.227057009935379028e-02,-2.158433198928833008e-04
8.252063393592834473e-02,-2.158135175704956055e-04
8.277069777250289917e-02,-2.159923315048217773e-04
8.302076160907745361e-02,-2.159923315048217773e-04
8.327081799507141113e-02,-2.160370349884033203e-04
8.352088183164596558e-02,-2.162307500839233398e-04
8.377094566822052002e-02,-2.162009477615356445e-04
8.402100950479507446e-02,-2.163648605346679688e-04
8.427107334136962891e-02,-2.164095640182495117e-04
8.452113717794418335e-02,-2.164989709854125977e-04
8.477119356393814087e-02,-2.165883779525756836e-04
8.502125740051269531e-02,-2.166181802749633789e-04
8.527132123708724976e-02,-2.166926860809326172e-04
8.552138507366180420e-02,-2.168267965316772461e-04
8.577144891023635864e-02,-2.169162034988403320e-04
8.602151274681091309e-02,-2.169013023376464844e-04
8.627156913280487061e-02,-2.170354127883911133e-04
8.652163296937942505e-02,-2.170950174331665039e-04
8.677169680595397949e-02,-2.172589302062988281e-04
8.702176064252853394e-02,-2.173036336898803711e-04
8.727182447910308838e-02,-2.173483371734619141e-04
8.752188086509704590e-02,-2.175271511077880859e-04
8.777194470167160034e-02,-2.176016569137573242e-04
8.802200853824615479e-02,-2.176761627197265625e-04
8.827207237482070923e-02,-2.177357673645019531e-04
8.852213621139526367e-02,-2.179294824600219727e-04
8.877220004796981812e-02,-2.179443836212158203e-04
8.902225643396377563e-02,-2.180933952331542969e-04
8.927232027053833008e-02,-2.181977033615112305e-04
8.952238410711288452e-02,-2.183020114898681641e-04
8.977244794368743896e-02,-2.183318138122558594e-04
9.002251178026199341e-02,-2.184659242630004883e-04
9.027257561683654785e-02,-2.186298370361328125e-04
9.052263200283050537e-02,-2.186745405197143555e-04
9.077269583940505981e-02,-2.187937498092651367e-04
9.102275967597961426e-02,-2.188533544540405273e-04
9.127282351255416870e-02,-2.189427614212036133e-04
9.152288734912872314e-02,-2.191066741943359375e-04
9.177294373512268066e-02,-2.192556858062744141e-04
9.202300757169723511e-02,-2.193450927734375000e-04
9.227307140827178955e-02,-2.194046974182128906e-04
9.252313524484634399e-02,-2.195388078689575195e-04
9.277319908142089844e-02,-2.196133136749267578e-04
9.302326291799545288e-02,-2.197772264480590820e-04
9.327331930398941040e-02,-2.198666334152221680e-04
9.352338314056396484e-02,-2.200305461883544922e-04
9.377344697713851929e-02,-2.200454473495483398e-04
9.402351081371307373e-02,-2.202540636062622070e-04
9.427357465028762817e-02,-2.203732728958129883e-04
9.452363848686218262e-02,-2.205073833465576172e-04
9.477369487285614014e-02,-2.206563949584960938e-04
9.502375870943069458e-02,-2.206712961196899414e-04
9.527382254600524902e-02,-2.208352088928222656e-04
9.552388638257980347e-02,-2.209544181823730469e-04
9.577395021915435791e-02,-2.210289239883422852e-04
9.602400660514831543e-02,-2.212971448898315430e-04
9.627407044172286987e-02,-2.214014530181884766e-04
9.652413427829742432e-02,-2.215355634689331055e-04
9.677419811487197876e-02,-2.216249704360961914e-04
9.702426195144653320e-02,-2.217441797256469727e-04
9.727432578802108765e-02,-2.218633890151977539e-04
9.752438217401504517e-02,-2.220124006271362305e-04
