x,intensity
0.000000000000000000e+00,3.680855854801800357e-272
2.500625156289072531e-04,3.680855854801800357e-272
5.001250312578145061e-04,3.682453399389186417e-272
7.501875468867217050e-04,3.687032743902437429e-272
1.000250062515629012e-03,3.697176536416084662e-272
1.250312578144536320e-03,3.717701794465736595e-272
1.500375093773443410e-03,3.757590149089902835e-272
1.750437609402350717e-03,3.833583170475535810e-272
2.000500125031258025e-03,3.976877020381180537e-272
2.250562640660165332e-03,4.245584276450214078e-272
2.500625156289072639e-03,4.747923839002335748e-272
2.750687671917979946e-03,5.685360933923738217e-272
3.000750187546886820e-03,7.432834957200242776e-272
3.250812703175794127e-03,1.068791311809762947e-271
3.500875218804701434e-03,1.674799884414238258e-271
3.750937734433608742e-03,2.802537385541478161e-271
4.001000250062516049e-03,4.900382554862273312e-271
4.251062765691423356e-03,8.801490764464138980e-271
4.501125281320330664e-03,1.605350572351433419e-270
4.751187796949237971e-03,2.953038250707119038e-270
5.001250312578145278e-03,5.456734887015923724e-270
5.251312828207052585e-03,1.010656531290062290e-269
5.501375343835959893e-03,1.873945248215867092e-269
5.751437859464867200e-03,3.476226927600952774e-269
6.001500375093773640e-03,6.449163810691804697e-269
6.251562890722680947e-03,1.196354293047708898e-268
6.501625406351588254e-03,2.218874057854312681e-268
6.751687921980495562e-03,4.114318182032291766e-268
7.001750437609402869e-03,7.626803032819972944e-268
7.251812953238310176e-03,1.413382299928869374e-267
7.501875468867217484e-03,2.618457167231862514e-267
7.751937984496124791e-03,4.849511419238934532e-267
8.002000500125032098e-03,8.978754470233176386e-267
8.252063015753938538e-03,1.661878292899166790e-266
8.502125531382846713e-03,3.075013512710639420e-266
8.752188047011753153e-03,5.687997085526017879e-266
9.002250562640661327e-03,1.051807184899067482e-265
9.252313078269567767e-03,1.944362707892468310e-265
9.502375593898475942e-03,3.593211555663271610e-265
9.752438109527382382e-03,6.638235159119212262e-265
1.000250062515629056e-02,1.225989672325471630e-264
1.025256314078519700e-02,2.263525123107394819e-264
1.050262565641410517e-02,4.177804884163341307e-264
1.075268817204301161e-02,7.708596491936857327e-264
1.100275068767191979e-02,1.421892612529020723e-263
1.125281320330082623e-02,2.621939144516417405e-263
1.150287571892973440e-02,4.833288753185213309e-263
1.175293823455864084e-02,8.906912806947451825e-263
1.200300075018754728e-02,1.640876838075575930e-262
1.225306326581645545e-02,3.021962657811981074e-262
1.250312578144536189e-02,5.563736163164564775e-262
1.275318829707427007e-02,1.024019639606462690e-261
1.300325081270317651e-02,1.884145207632926664e-261
1.325331332833208468e-02,3.465650627631636323e-261
1.350337584396099112e-02,6.372641890687112254e-261
1.375343835958989930e-02,1.171436021372982262e-260
1.400350087521880574e-02,2.152692314314985095e-260
1.425356339084771391e-02,3.954664742270287533e-260
1.450362590647662035e-02,7.262760276535979552e-260
1.475368842210552853e-02,1.333392699979552724e-259
1.500375093773443497e-02,2.447252398588544398e-259
1.525381345336334314e-02,4.490180285955194121e-259
1.550387596899224958e-02,8.235938995284243082e-259
1.575393848462115776e-02,1.510173307709061515e-258
1.600400100025006420e-02,2.768246663948672289e-258
1.625406351587897064e-02,5.072792607450612948e-258
1.650412603150787708e-02,9.292953331952048511e-258
1.675418854713678699e-02,1.701863531311312269e-257
1.700425106276569343e-02,3.115731571058424432e-257
1.725431357839459987e-02,5.702426089947419123e-257
1.750437609402350631e-02,1.043334629627893919e-256
1.775443860965241621e-02,1.908323099233808960e-256
1.800450112528132265e-02,3.489349887121556347e-256
1.825456364091022909e-02,6.378248852692504114e-256
1.850462615653913553e-02,1.165528043366793534e-255
1.875468867216804544e-02,2.129160120059273750e-255
1.900475118779695188e-02,3.888286404297410126e-255
1.925481370342585832e-02,7.098596631329329698e-255
1.950487621905476476e-02,1.295540752692865459e-254
1.975493873468367467e-02,2.363708882655476992e-254
2.000500125031258111e-02,4.311230313465089188e-254
2.025506376594148755e-02,7.860909381302117232e-254
2.050512628157039399e-02,1.432876249797141759e-253
2.075518879719930043e-02,2.611012238294924733e-253
2.100525131282821034e-02,4.756346217342894732e-253
2.125531382845711678e-02,8.661684108674296330e-253
2.150537634408602322e-02,1.576868768195513025e-252
2.175543885971492966e-02,2.869809648793567252e-252
2.200550137534383957e-02,5.221255680997580446e-252
2.225556389097274601e-02,9.496447240790802102e-252
2.250562640660165245e-02,1.726679323473922037e-251
2.275568892223055889e-02,3.138531898864422770e-251
2.300575143785946880e-02,5.703031042426916764e-251
2.325581395348837524e-02,1.035974949688813110e-250
2.350587646911728168e-02,1.881295873580776508e-250
2.375593898474618812e-02,3.415303333822333093e-250
2.400600150037509456e-02,6.198202939507861935e-250
2.425606401600400447e-02,1.124518570503258322e-249
2.450612653163291091e-02,2.039538006496281443e-249
2.475618904726181735e-02,3.697952296508177937e-249
2.500625156289072379e-02,6.702782655070570958e-249
2.525631407851963370e-02,1.214544134395309489e-248
2.550637659414854014e-02,2.200066437884678289e-248
2.575643910977744658e-02,3.984030203458520472e-248
2.600650162540635302e-02,7.212299946940399329e-248
2.625656414103526293e-02,1.305236678236412535e-247
2.650662665666416937e-02,2.361397452500458024e-247
2.675668917229307581e-02,4.270839426429462402e-247
2.700675168792198225e-02,7.721856527232374479e-247
2.725681420355089216e-02,1.395707926916420855e-246
2.750687671917979860e-02,2.521922255482496176e-246
2.775693923480870504e-02,4.555469840523735438e-246
2.800700175043761148e-02,8.226194802334000536e-246
2.825706426606651792e-02,1.485009172811468105e-245
2.850712678169542783e-02,2.679931019362540688e-245
2.875718929732433427e-02,4.834843575880119884e-245
2.900725181295324070e-02,8.719780903370360687e-245
2.925731432858214714e-02,1.572146637018034550e-244
2.950737684421105705e-02,2.833641227016218784e-244
2.975743935983996349e-02,5.105767179716318007e-244
3.000750187546886993e-02,9.196900451222891942e-244
3.025756439109777637e-02,1.656099010064057567e-243
3.050762690672668628e-02,2.981229728059038271e-243
3.075768942235559272e-02,5.364990074251149043e-243
3.100775193798449916e-02,9.651764937128736002e-243
3.125781445361340560e-02,1.735836771459070356e-242
3.150787696924231551e-02,3.120867755003899789e-242
3.175793948487121848e-02,5.609267899140926785e-242
3.200800200050012839e-02,1.007862608705170121e-241
3.225806451612903830e-02,1.810342799234530631e-241
3.250812703175794127e-02,3.250757994457635506e-241
3.275818954738685118e-02,5.835429069784507166e-241
3.300825206301575415e-02,1.047189514211769724e-240
3.325831457864466406e-02,1.878633707228077494e-240
3.350837709427357397e-02,3.369172685911787338e-240
3.375843960990247694e-02,6.040442679242465281e-240
3.400850212553138685e-02,1.082626365280009508e-239
3.425856464116029676e-02,1.939781293475520498e-239
3.450862715678919973e-02,3.474491633433349952e-239
3.475868967241810964e-02,6.221485733879029035e-239
3.500875218804701261e-02,1.113682217187955088e-238
3.525881470367592252e-02,1.992933451139739489e-238
3.550887721930483243e-02,3.565238969513019772e-238
3.575893973493373540e-02,6.376007650469650397e-238
3.600900225056264531e-02,1.139917315578365101e-237
3.625906476619154828e-02,2.037333886404383780e-237
3.650912728182045819e-02,3.640117509419969835e-237
3.675918979744936810e-02,6.501789961628280978e-237
3.700925231307827107e-02,1.160953445495085756e-236
3.725931482870718098e-02,2.072340007003264230e-236
3.750937734433609089e-02,3.698039580406918951e-236
3.775943985996499386e-02,6.596999279082223159e-236
3.800950237559390377e-02,1.176482999337067758e-235
3.825956489122280674e-02,2.097438390605699721e-235
3.850962740685171665e-02,3.738153302525438579e-235
3.875968992248062656e-02,6.660231748663699271e-235
3.900975243810952953e-02,1.186276460016314117e-234
3.925981495373843944e-02,2.112257312833830072e-234
3.950987746936734935e-02,3.759863433790463640e-234
3.975993998499625232e-02,6.690547490785913586e-234
4.001000250062516223e-02,1.190188044925803087e-233
4.026006501625406520e-02,2.116575907698284550e-233
4.051012753188297510e-02,3.762846066824634643e-233
4.076019004751188501e-02,6.687493845523654956e-233
4.101025256314078798e-02,1.188159316740904990e-232
4.126031507876969789e-02,2.110329644943947886e-232
4.151037759439860086e-02,3.747056669829827395e-232
4.176044011002751077e-02,6.651116618792470044e-232
4.201050262565642068e-02,1.180220636054872320e-231
4.226056514128532365e-02,2.093611934450576134e-231
4.251062765691423356e-02,3.712731192877262927e-231
4.276069017254314347e-02,6.581958939093977109e-231
4.301075268817204644e-02,1.166490405378196852e-230
4.326081520380095635e-02,2.066671801935465611e-230
4.351087771942985932e-02,3.660380201109182247e-230
4.376094023505876923e-02,6.481047764709023832e-230
4.401100275068767914e-02,1.147172130813354116e-229
4.426106526631658211e-02,2.029907716794086150e-229
4.451112778194549202e-02,3.590776238733934445e-229
4.476119029757439499e-02,6.349868509842299212e-229
4.501125281320330490e-02,1.122549403321256305e-228
4.526131532883221481e-02,1.983857785889631239e-228
4.551137784446111778e-02,3.504934860911686637e-228
4.576144036009002769e-02,6.190328665952777663e-228
4.601150287571893760e-02,1.092978972564814146e-227
4.626156539134784057e-02,1.929186650580210673e-227
4.651162790697675048e-02,3.404089984412698892e-227
4.676169042260565345e-02,6.004711663399574849e-227
4.701175293823456336e-02,1.058882149728246009e-226
4.726181545386347327e-02,1.866669532848411407e-226
4.751187796949237624e-02,3.289664393074332840e-226
4.776194048512128615e-02,5.795622532746533315e-226
4.801200300075018912e-02,1.020734828772215845e-225
4.826206551637909903e-02,1.797173965514949384e-225
4.851212803200800894e-02,3.163236382816174587e-225
4.876219054763691191e-02,5.565927171631643401e-225
4.901225306326582182e-02,9.790564561392484089e-225
4.926231557889473173e-02,1.721639807607528324e-224
4.951237809452363470e-02,3.026503637545056267e-224
4.976244061015254461e-02,5.318687192707815294e-224
5.001250312578144758e-02,9.343983054821903267e-224
5.026256564141035749e-02,1.641058186705164099e-223
5.051262815703926740e-02,2.881245488084895327e-223
5.076269067266817037e-02,5.057092415449105606e-223
5.101275318829708028e-02,8.873314257908555391e-223
5.126281570392599019e-02,1.556450024439776566e-222
5.151287821955489316e-02,2.729284720067825395e-222
5.176294073518380306e-02,4.784393068385089808e-222
5.201300325081270604e-02,8.384346283025381157e-222
5.226306576644161594e-02,1.468844789596093899e-221
5.251312828207052585e-02,2.572450064593470126e-221
5.276319079769942882e-02,4.503833691548411639e-221
5.301325331332833873e-02,7.882828605105353786e-221
5.326331582895724170e-02,1.379260086964862428e-220
5.351337834458615161e-02,2.412540430683103630e-220
5.376344086021506152e-02,4.218590578305713415e-220
5.401350337584396449e-02,7.374362857765229897e-220
5.426356589147287440e-02,1.288682631929208068e-219
5.451362840710178431e-02,2.251291826325078709e-219
5.476369092273068728e-02,3.931714381295024188e-219
5.501375343835959719e-02,6.864303464155581201e-219
5.526381595398850016e-02,1.198051084311759257e-218
5.551387846961741007e-02,2.090347771986755683e-218
5.576394098524631998e-02,3.646079241528807205e-218
5.601400350087522295e-02,6.357670389933543779e-218
5.626406601650413286e-02,1.108241124582652040e-217
5.651412853213303583e-02,1.931233844740519602e-217
5.676419104776194574e-02,3.364339497227437497e-217
5.701425356339085565e-02,5.859075755689309428e-217
5.726431607901975862e-02,1.020053055856822300e-216
5.751437859464866853e-02,1.775336811162302293e-216
5.776444111027757844e-02,3.088894704939630270e-216
5.801450362590648141e-02,5.372665464728277375e-216
5.826456614153539132e-02,9.342021110833728551e-216
5.851462865716429429e-02,1.623888621578297576e-215
5.876469117279320420e-02,2.821863375387284098e-215
5.901475368842211411e-02,4.902076416487433900e-215
5.926481620405101708e-02,8.513115412286287566e-215
5.951487871967992699e-02,1.477955355459740909e-214
5.976494123530883690e-02,2.565065504873754092e-214
6.001500375093773987e-02,4.450409311552805064e-214
6.026506626656664978e-02,7.719084615015599551e-214
6.051512878219555275e-02,1.338431035425688267e-213
6.076519129782446266e-02,2.320013683176064370e-213
6.101525381345337257e-02,4.020216533804950740e-213
6.126531632908227554e-02,6.964223426254523893e-213
6.151537884471118545e-02,1.206036071990191770e-212
6.176544136034008842e-02,2.087912291762357942e-212
6.201550387596899833e-02,3.613504137445119116e-212
6.226556639159790824e-02,6.251859559669035657e-212
6.251562890722681121e-02,1.081319968115063390e-211
6.276569142285572112e-02,1.869664080554099571e-211
6.301575393848463102e-02,3.231746585737729120e-211
6.326581645411354093e-02,5.584385173066942637e-211
6.351587896974243697e-02,9.646678055282566084e-211
6.376594148537134688e-02,1.665883233267284845e-210
6.401600400100025678e-02,2.875912593581825334e-210
6.426606651662916669e-02,4.963307256172513033e-210
6.451612903225807660e-02,8.563099558235214220e-210
6.476619154788697263e-02,1.476913903772247010e-209
6.501625406351588254e-02,2.546500221945757657e-209
6.526631657914479245e-02,4.389313609699280390e-209
6.551637909477370236e-02,7.563344091984219327e-209
6.576644161040261227e-02,1.302853129391865255e-208
6.601650412603150830e-02,2.243579258428590671e-208
6.626656664166041821e-02,3.862350893844399818e-208
6.651662915728932812e-02,6.647010915393344689e-208
6.676669167291823803e-02,1.143576999643290263e-207
6.701675418854714794e-02,1.966838890300641244e-207
6.726681670417605785e-02,3.381711210809857626e-207
6.751687921980495388e-02,5.812575444119214127e-207
6.776694173543386379e-02,9.987689765493718639e-207
6.801700425106277370e-02,1.715638726231659101e-206
6.826706676669168361e-02,2.946123806370783418e-206
6.851712928232059352e-02,5.057553693440534991e-206
6.876719179794948955e-02,8.679493195737933319e-206
6.901725431357839946e-02,1.489061339765123146e-205
6.926731682920730937e-02,2.553848709630843885e-205
6.951737934483621928e-02,4.378668838486874120e-205
6.976744186046512919e-02,7.505046575399870846e-205
7.001750437609402522e-02,1.285964678715014805e-204
7.026756689172293513e-02,2.202769454772021042e-204
7.051762940735184504e-02,3.772014977140133170e-204
7.076769192298075495e-02,6.457168639688025291e-204
7.101775443860966486e-02,1.105032896350699400e-203
7.126781695423856089e-02,1.890482419187609721e-203
7.151787946986747080e-02,3.233213897849624915e-203
7.176794198549638071e-02,5.527905232692128497e-203
7.201800450112529062e-02,9.448243985610077177e-203
7.226806701675420053e-02,1.614380744264380336e-202
7.251812953238309656e-02,2.757561434348293098e-202
7.276819204801200647e-02,4.708784155077093522e-202
7.301825456364091638e-02,8.038161527820259110e-202
7.326831707926982629e-02,1.371731254883288467e-201
7.351837959489873620e-02,2.340160791030374520e-201
7.376844211052764611e-02,3.991045899961982431e-201
7.401850462615654214e-02,6.804435570950661651e-201
7.426856714178545205e-02,1.159743240314637384e-200
7.451862965741436196e-02,1.976041010281278371e-200
7.476869217304327186e-02,3.365847364564258194e-200
7.501875468867218177e-02,5.731354109349754756e-200
7.526881720430107781e-02,9.756283845552617530e-200
7.551887971992998771e-02,1.660259495735378410e-199
7.576894223555889762e-02,2.824436918748612349e-199
7.601900475118780753e-02,4.803437536095411848e-199
7.626906726681671744e-02,8.166515237289851166e-199
7.651912978244561347e-02,1.387988179035161871e-198
7.676919229807452338e-02,2.358300373445684218e-198
7.701925481370343329e-02,4.005685367153423188e-198
7.726931732933234320e-02,6.801722511811351668e-198
7.751937984496125311e-02,1.154583504725674760e-197
7.776944236059014914e-02,1.959278393900541368e-197
7.801950487621905905e-02,3.323772670754698743e-197
7.826956739184796896e-02,5.636776803006989873e-197
7.851962990747687887e-02,9.556408975115336995e-197
7.876969242310578878e-02,1.619656728302339618e-196
7.901975493873469869e-02,2.744198955618683262e-196
7.926981745436359472e-02,4.648069073899750952e-196
7.951987996999250463e-02,7.870347634882121055e-196
7.976994248562141454e-02,1.332231265614984853e-195
8.002000500125032445e-02,2.254393334837015349e-195
8.027006751687923436e-02,3.813678917218113053e-195
8.052013003250813039e-02,6.449453627648461491e-195
8.077019254813704030e-02,1.090350400669026959e-194
8.102025506376595021e-02,1.842780530769070861e-194
8.127031757939486012e-02,3.113475895869183838e-194
8.152038009502377003e-02,5.258740802741360857e-194
8.177044261065266606e-02,8.879374806762737230e-194
8.202050512628157597e-02,1.498812742387893480e-193
8.227056764191048588e-02,2.529162480663102408e-193
8.252063015753939579e-02,4.266487231677485086e-193
8.277069267316830570e-02,7.194962519405094140e-193
8.302075518879720173e-02,1.212972591856821214e-192
8.327081770442611164e-02,2.044267884300396666e-192
8.352088022005502155e-02,3.444204981450562440e-192
8.377094273568393146e-02,5.801022392694929030e-192
8.402100525131284137e-02,9.767523396078945128e-192
8.427106776694173740e-02,1.644101953985455853e-191
8.452113028257064731e-02,2.766542829910200127e-191
8.477119279819955722e-02,4.653828963162413024e-191
8.502125531382846713e-02,7.826143480754501682e-191
8.527131782945737704e-02,1.315677844094527452e-190
8.552138034508628694e-02,2.211137167314085144e-190
8.577144286071518298e-02,3.714891863536398709e-190
8.602150537634409289e-02,6.239374253570134185e-190
8.627156789197300280e-02,1.047611519171152865e-189
8.652163040760191270e-02,1.758425052271333321e-189
8.677169292323082261e-02,2.950610128286899660e-189
8.702175543885971865e-02,4.949532317750556470e-189
8.727181795448862855e-02,8.300053067170762168e-189
8.752188047011753846e-02,1.391431860277509213e-188
8.777194298574644837e-02,2.331886388372362416e-188
8.802200550137535828e-02,3.906764217109647400e-188
8.827206801700425431e-02,6.543217929754993527e-188
8.852213053263316422e-02,1.095544289594808265e-187
8.877219304826207413e-02,1.833719334664559445e-187
8.902225556389098404e-02,3.068316528616188928e-187
8.927231807951989395e-02,5.132533891013636466e-187
8.952238059514878998e-02,8.582777678096114113e-187
8.977244311077769989e-02,1.434789770018712039e-186
9.002250562640660980e-02,2.397800527652542097e-186
9.027256814203551971e-02,4.005919363300825225e-186
9.052263065766442962e-02,6.690456114259374607e-186
9.077269317329333953e-02,1.117052594653148806e-185
9.102275568892223556e-02,1.864472101146720510e-185
9.127281820455114547e-02,3.111018037814074943e-185
9.152288072018005538e-02,5.189356914663762644e-185
9.177294323580896529e-02,8.653442795013046519e-185
9.202300575143787520e-02,1.442542726596314818e-184
9.227306826706677123e-02,2.403990886101583484e-184
9.252313078269568114e-02,4.004988945830775285e-184
9.277319329832459105e-02,6.670128492147051276e-184
9.302325581395350096e-02,1.110532959193301872e-183
9.327331832958241087e-02,1.848387736991082555e-183
9.352338084521130690e-02,3.075523706046706578e-183
9.377344336084021681e-02,5.115751657215312536e-183
9.402350587646912672e-02,8.506760442492006899e-183
9.427356839209803663e-02,1.414110434626944503e-182
9.452363090772694654e-02,2.349994392149919352e-182
9.477369342335584257e-02,3.904043967453755543e-182
9.502375593898475248e-02,6.483760279964393237e-182
9.527381845461366239e-02,1.076474073981473703e-181
9.552388097024257230e-02,1.786670947300391716e-181
9.577394348587148221e-02,2.964489744677099683e-181
9.602400600150037824e-02,4.917220745930511853e-181
9.627406851712928815e-02,8.153683219805266053e-181
9.652413103275819806e-02,1.351612938592770401e-180
9.677419354838710797e-02,2.239830855809674414e-180
9.702425606401601788e-02,3.710585839111016131e-180
9.727431857964492778e-02,6.145173083847832749e-180
9.752438109527382382e-02,1.017396253111812963e-179
