x,intensity
0.000000000000000000e+00,3.680855854801800094e-271
2.500625156289072531e-04,3.680855854801800094e-271
5.001250312578145061e-04,3.681015681164426060e-271
7.501875468867217050e-04,3.681473893627768082e-271
1.000250062515629012e-03,3.682489007439221753e-271
1.250312578144536320e-03,3.684543191588916696e-271
1.500375093773443410e-03,3.688535480648154306e-271
1.750437609402350717e-03,3.696141656580860852e-271
2.000500125031258025e-03,3.710484364534958210e-271
2.250562640660165332e-03,3.737380506684485813e-271
2.500625156289072639e-03,3.787662488013515969e-271
2.750687671917979946e-03,3.881496413285633080e-271
3.000750187546886820e-03,4.056412678943028708e-271
3.250812703175794127e-03,4.382235857736461800e-271
3.500875218804701434e-03,4.988832535682695310e-271
3.750937734433608742e-03,6.117665696132729857e-271
4.001000250062516049e-03,8.217550689152422469e-271
4.251062765691423356e-03,1.212245447030589283e-270
4.501125281320330664e-03,1.938152887063463456e-270
4.751187796949237971e-03,3.287153055014150818e-270
5.001250312578145278e-03,5.793289004144461205e-270
5.251312828207052585e-03,1.044765146312072672e-269
5.501375343835959893e-03,1.908895601516478865e-269
5.751437859464867200e-03,3.512740148074754274e-269
6.001500375093773640e-03,6.488577909395040566e-269
6.251562890722680947e-03,1.200833972933413388e-268
6.501625406351588254e-03,2.224352206775864441e-268
6.751687921980495562e-03,4.121647870536228265e-268
7.001750437609402869e-03,7.637565102680524432e-268
7.251812953238310176e-03,1.415094602358632123e-267
7.501875468867217484e-03,2.621347925462918408e-267
7.751937984496124791e-03,4.854584749585158389e-267
8.002000500125032098e-03,8.987868794623296778e-267
8.252063015753938538e-03,1.663537674588211584e-266
8.502125531382846713e-03,3.078056844301299717e-266
8.752188047011753153e-03,5.693600375630288168e-266
9.002250562640661327e-03,1.052840893802227052e-265
9.252313078269567767e-03,1.946271503346044455e-265
9.502375593898475942e-03,3.596737524311762058e-265
9.752438109527382382e-03,6.644748754816284003e-265
1.000250062515629056e-02,1.227192805034374667e-264
1.025256314078519700e-02,2.265746985711040405e-264
1.050262565641410517e-02,4.181907023927161333e-264
1.075268817204301161e-02,7.716167988886497659e-264
1.100275068767191979e-02,1.423289704030499311e-263
1.125281320330082623e-02,2.624516274786106939e-263
1.150287571892973440e-02,4.838041169594550077e-263
1.175293823455864084e-02,8.915673898234068878e-263
1.200300075018754728e-02,1.642491445675609384e-262
1.225306326581645545e-02,3.024937339892546463e-262
1.250312578144536189e-02,5.569214878591120536e-262
1.275318829707427007e-02,1.025028384768087869e-261
1.300325081270317651e-02,1.886001937297628920e-261
1.325331332833208468e-02,3.469067119194669583e-261
1.350337584396099112e-02,6.378926473894704082e-261
1.375343835958989930e-02,1.172591699924489422e-260
1.400350087521880574e-02,2.154816840393511375e-260
1.425356339084771391e-02,3.958569117226307384e-260
1.450362590647662035e-02,7.269933352137820328e-260
1.475368842210552853e-02,1.334710118411524019e-259
1.500375093773443497e-02,2.449671235012557119e-259
1.525381345336334314e-02,4.494619986738937509e-259
1.550387596899224958e-02,8.244085387969206165e-259
1.575393848462115776e-02,1.511667620168701555e-258
1.600400100025006420e-02,2.770986861868558434e-258
1.625406351587897064e-02,5.077815881649210845e-258
1.650412603150787708e-02,9.302159020469177242e-258
1.675418854713678699e-02,1.703550045912822316e-257
1.700425106276569343e-02,3.118820360996248074e-257
1.725431357839459987e-02,5.708081330476340514e-257
1.750437609402350631e-02,1.044369719901160021e-256
1.775443860965241621e-02,1.910217054920299211e-256
1.800450112528132265e-02,3.492814269644834240e-256
1.825456364091022909e-02,6.384583848102944131e-256
1.850462615653913553e-02,1.166686103764546859e-255
1.875468867216804544e-02,2.131276436259194130e-255
1.900475118779695188e-02,3.892152693558065900e-255
1.925481370342585832e-02,7.105657734722446318e-255
1.950487621905476476e-02,1.296829937680301572e-254
1.975493873468367467e-02,2.366061884944319122e-254
2.000500125031258111e-02,4.315523639809686809e-254
2.025506376594148755e-02,7.868740609782410499e-254
2.050512628157039399e-02,1.434304256778263941e-253
2.075518879719930043e-02,2.613615364406756707e-253
2.100525131282821034e-02,4.761089997226979343e-253
2.125531382845711678e-02,8.670326188878355021e-253
2.150537634408602322e-02,1.578442665889140561e-252
2.175543885971492966e-02,2.872675140453060210e-252
2.200550137534383957e-02,5.226471064417291474e-252
2.225556389097274601e-02,9.505936619498754597e-252
2.250562640660165245e-02,1.728405375016121128e-251
2.275568892223055889e-02,3.141670485965645391e-251
2.300575143785946880e-02,5.708736349911953326e-251
2.325581395348837524e-02,1.037011733888829436e-250
2.350587646911728168e-02,1.883179358424822810e-250
2.375593898474618812e-02,3.418723918412306672e-250
2.400600150037509456e-02,6.204413102307026399e-250
2.425606401600400447e-02,1.125645690309792267e-249
2.450612653163291091e-02,2.041583045633614359e-249
2.475618904726181735e-02,3.701661644788810794e-249
2.500625156289072379e-02,6.709508673412583890e-249
2.525631407851963370e-02,1.215763356784007728e-248
2.550637659414854014e-02,2.202275827242698640e-248
2.575643910977744658e-02,3.988032654550975738e-248
2.600650162540635302e-02,7.219548382083233194e-248
2.625656414103526293e-02,1.306548959501276601e-247
2.650662665666416937e-02,2.363772509560042524e-247
2.675668917229307581e-02,4.275136626906770850e-247
2.700675168792198225e-02,7.729629043350040625e-247
2.725681420355089216e-02,1.397113333863786194e-246
2.750687671917979860e-02,2.524462684178830623e-246
2.775693923480870504e-02,4.560060513675761543e-246
2.800700175043761148e-02,8.234487774073135413e-246
2.825706426606651792e-02,1.486506816317554593e-245
2.850712678169542783e-02,2.682634798172225282e-245
2.875718929732433427e-02,4.839723334305934002e-245
2.900725181295324070e-02,8.728585104103232650e-245
2.925731432858214714e-02,1.573734620569671674e-244
2.950737684421105705e-02,2.836504524783678535e-244
2.975743935983996349e-02,5.110928389132091306e-244
3.000750187546886993e-02,9.206200835616241164e-244
3.025756439109777637e-02,1.657774395625423534e-243
3.050762690672668628e-02,2.984246851576343309e-243
3.075768942235559272e-02,5.370421775361209027e-243
3.100775193798449916e-02,9.661540529653731016e-243
3.125781445361340560e-02,1.737595564627546981e-242
3.150787696924231551e-02,3.124031131639163181e-242
3.175793948487121848e-02,5.614955793065428981e-242
3.200800200050012839e-02,1.008884998552158924e-241
3.225806451612903830e-02,1.812179955174900791e-241
3.250812703175794127e-02,3.254058192246084516e-241
3.275818954738685118e-02,5.841355570905135216e-241
3.300825206301575415e-02,1.048253464232703974e-240
3.325831457864466406e-02,1.880543158319977660e-240
3.350837709427357397e-02,3.372598472506893358e-240
3.375843960990247694e-02,6.046587037468226108e-240
3.400850212553138685e-02,1.083728049694888728e-239
3.425856464116029676e-02,1.941755998992463198e-239
3.450862715678919973e-02,3.478030074197110917e-239
3.475868967241810964e-02,6.227824226311331448e-239
3.500875218804701261e-02,1.114817291981567915e-238
3.525881470367592252e-02,1.994965468621163443e-238
3.550887721930483243e-02,3.568875563845221315e-238
3.575893973493373540e-02,6.382513840333953794e-238
3.600900225056264531e-02,1.141080967432429769e-237
3.625906476619154828e-02,2.039414463709827782e-237
3.650912728182045819e-02,3.643836363231088588e-237
3.675918979744936810e-02,6.508435020220398187e-237
3.700925231307827107e-02,1.162140451679542334e-236
3.725931482870718098e-02,2.074459693376601265e-236
3.750937734433609089e-02,3.701823611476059403e-236
3.775943985996499386e-02,6.603752364436253137e-236
3.800950237559390377e-02,1.177687797354642076e-235
3.825956489122280674e-02,2.099587164454312045e-235
3.850962740685171665e-02,3.741984474401099618e-235
3.875968992248062656e-02,6.667060432770110212e-235
3.900975243810952953e-02,1.187493225469950501e-234
3.925981495373843944e-02,2.114424723368985545e-234
3.950987746936734935e-02,3.763723012934019006e-234
3.975993998499625232e-02,6.697418225552490161e-234
4.001000250062516223e-02,1.191410775800483039e-233
4.026006501625406520e-02,2.118751227112592828e-233
4.051012753188297510e-02,3.766714896905176221e-233
4.076019004751188501e-02,6.694372456349327719e-233
4.101025256314078798e-02,1.189381922071801261e-232
4.126031507876969789e-02,2.112502027440235109e-232
4.151037759439860086e-02,3.750915456489245173e-232
4.176044011002751077e-02,6.657968813672656157e-232
4.201050262565642068e-02,1.181437026802393036e-231
4.226056514128532365e-02,2.095770578199662332e-231
4.251062765691423356e-02,3.716560791922015460e-231
4.276069017254314347e-02,6.588750820637869840e-231
4.301075268817204644e-02,1.167694585253942919e-230
4.326081520380095635e-02,2.068806109938714728e-230
4.351087771942985932e-02,3.664161902966301156e-230
4.376094023505876923e-02,6.487746332348325631e-230
4.401100275068767914e-02,1.148358284802757087e-229
4.426106526631658211e-02,2.032007452664723004e-229
4.451112778194549202e-02,3.594492042138714481e-229
4.476119029757439499e-02,6.356442139851658275e-229
4.501125281320330490e-02,1.123711981728618048e-228
4.526131532883221481e-02,1.985913220743012045e-228
4.551137784446111778e-02,3.508567729167415215e-228
4.576144036009002769e-02,6.196747557669463353e-228
4.601150287571893760e-02,1.094112768561043222e-227
4.626156539134784057e-02,1.931188697529591585e-227
4.651162790697675048e-02,3.407624078162077850e-227
4.676169042260565345e-02,6.010948241189604214e-227
4.701175293823456336e-02,1.059982368603956965e-226
4.726181545386347327e-02,1.868609866025820582e-226
4.751187796949237624e-02,3.293085274321580435e-226
4.776194048512128615e-02,5.801651794765608850e-226
4.801200300075018912e-02,1.021797147379241817e-225
4.826206551637909903e-02,1.799045121057914120e-225
4.851212803200800894e-02,3.166531185903138430e-225
4.876219054763691191e-02,5.571726978206384932e-225
4.901225306326582182e-02,9.800770713298589033e-225
4.926231557889473173e-02,1.723435264649172510e-224
4.951237809452363470e-02,3.029661203872601162e-224
4.976244061015254461e-02,5.324238489139783015e-224
5.001250312578144758e-02,9.353739707134896396e-224
5.026256564141035749e-02,1.642772427052242154e-223
5.051262815703926740e-02,2.884256462536415396e-223
5.076269067266817037e-02,5.062379386138102903e-223
5.101275318829708028e-02,8.882594754370232101e-223
5.126281570392599019e-02,1.558078570293701319e-222
5.151287821955489316e-02,2.732141608286961230e-222
5.176294073518380306e-02,4.789403221293525628e-222
5.201300325081270604e-02,8.393129895945534417e-222
5.226306576644161594e-02,1.470384219339053012e-221
5.251312828207052585e-02,2.575147251445430478e-221
5.276319079769942882e-02,4.508557874101366060e-221
5.301325331332833873e-02,7.891100533870719896e-221
5.326331582895724170e-02,1.380708029670855092e-220
5.351337834458615161e-02,2.415074161343359232e-220
5.376344086021506152e-02,4.223022927763432462e-220
5.401350337584396449e-02,7.382114112672561830e-220
5.426356589147287440e-02,1.290037741844919915e-219
5.451362840710178431e-02,2.253660152450382731e-219
5.476369092273068728e-02,3.935852214376996000e-219
5.501375343835959719e-02,6.871530644774275324e-219
5.526381595398850016e-02,1.199312997064603767e-218
5.551387846961741007e-02,2.092550466297668002e-218
5.576394098524631998e-02,3.649922889554434746e-218
5.601400350087522295e-02,6.364375369718591352e-218
5.626406601650413286e-02,1.109410397297267498e-217
5.651412853213303583e-02,1.933272288055752251e-217
5.676419104776194574e-02,3.367892094224993018e-217
5.701425356339085565e-02,5.865265286533843543e-217
5.726431607901975862e-02,1.021131093685705826e-216
5.751437859464866853e-02,1.777213856455810573e-216
5.776444111027757844e-02,3.092161937035457283e-216
5.801450362590648141e-02,5.378350716525568118e-216
5.826456614153539132e-02,9.351910828761528438e-216
5.851462865716429429e-02,1.625608439971518101e-215
5.876469117279320420e-02,2.824853200309814491e-215
5.901475368842211411e-02,4.907272467551365399e-215
5.926481620405101708e-02,8.522142871764875441e-215
5.951487871967992699e-02,1.479523269213820494e-214
5.976494123530883690e-02,2.567787850595732632e-214
6.001500375093773987e-02,4.455134605937428636e-214
6.026506626656664978e-02,7.727283956021584494e-214
6.051512878219555275e-02,1.339853342970211879e-213
6.076519129782446266e-02,2.322480134591413825e-213
6.101525381345337257e-02,4.024492321205138584e-213
6.126531632908227554e-02,6.971633527269878196e-213
6.151537884471118545e-02,1.207319869831165576e-212
6.176544136034008842e-02,2.090135773881588175e-212
6.201550387596899833e-02,3.617353910510282588e-212
6.226556639159790824e-02,6.258523039788807263e-212
6.251562890722681121e-02,1.082472974126891770e-211
6.276569142285572112e-02,1.871658546043772267e-211
6.301575393848463102e-02,3.235195528363136026e-211
6.326581645411354093e-02,5.590347419233806420e-211
6.351587896974243697e-02,9.656981876777061470e-211
6.376594148537134688e-02,1.667663361301774110e-210
6.401600400100025678e-02,2.878987052143129991e-210
6.426606651662916669e-02,4.968615496032427349e-210
6.451612903225807660e-02,8.572261698264373236e-210
6.476619154788697263e-02,1.478494816160837394e-209
6.501625406351588254e-02,2.549227209603658094e-209
6.526631657914479245e-02,4.394016047222135728e-209
6.551637909477370236e-02,7.571450480016692911e-209
6.576644161040261227e-02,1.304250128843528528e-208
6.601650412603150830e-02,2.245986000645126841e-208
6.626656664166041821e-02,3.866495921283098803e-208
6.651662915728932812e-02,6.654147488801792583e-208
6.676669167291823803e-02,1.144805333886487759e-207
6.701675418854714794e-02,1.968952417666385862e-207
6.726681670417605785e-02,3.385346706937849701e-207
6.751687921980495388e-02,5.818826940622328759e-207
6.776694173543386379e-02,9.998436308825844148e-207
6.801700425106277370e-02,1.717485518686583858e-206
6.826706676669168361e-02,2.949296527384663548e-206
6.851712928232059352e-02,5.063002610219564499e-206
6.876719179794948955e-02,8.688848393265355380e-206
6.901725431357839946e-02,1.490667024377744030e-205
6.926731682920730937e-02,2.556603775754869949e-205
6.951737934483621928e-02,4.383394561966383622e-205
6.976744186046512919e-02,7.513150009094178920e-205
7.001750437609402522e-02,1.287353781424566892e-204
7.026756689172293513e-02,2.205149932556099722e-204
7.051762940735184504e-02,3.776093082165483691e-204
7.076769192298075495e-02,6.464152847916624161e-204
7.101775443860966486e-02,1.106228646521745526e-203
7.126781695423856089e-02,1.892528996825274846e-203
7.151787946986747080e-02,3.236715610439430474e-203
7.176794198549638071e-02,5.533894825126985034e-203
7.201800450112529062e-02,9.458485838810989203e-203
7.226806701675420053e-02,1.616131495023212020e-202
7.251812953238309656e-02,2.760553248427707965e-202
7.276819204801200647e-02,4.713895196281013730e-202
7.301825456364091638e-02,8.046890209687770232e-202
7.326831707926982629e-02,1.373221481963106283e-201
7.351837959489873620e-02,2.342704226596499259e-201
7.376844211052764611e-02,3.995385538251856510e-201
7.401850462615654214e-02,6.811837600743849338e-201
7.426856714178545205e-02,1.161005395132316338e-200
7.451862965741436196e-02,1.978192498312485856e-200
7.476869217304327186e-02,3.369513679300458612e-200
7.501875468867218177e-02,5.737599866007809798e-200
7.526881720430107781e-02,9.766920495832061297e-200
7.551887971992998771e-02,1.662070373795758751e-199
7.576894223555889762e-02,2.827518957110586306e-199
7.601900475118780753e-02,4.808681399611742082e-199
7.626906726681671744e-02,8.175434505550734673e-199
7.651912978244561347e-02,1.389504780880478459e-198
7.676919229807452338e-02,2.360878346903281618e-198
7.701925481370343329e-02,4.010066130685581389e-198
7.726931732933234320e-02,6.809164443669314201e-198
7.751937984496125311e-02,1.155847327204797015e-197
7.776944236059014914e-02,1.961424004823483726e-197
7.801950487621905905e-02,3.327414171276854758e-197
7.826956739184796896e-02,5.642955178390444047e-197
7.851962990747687887e-02,9.566888285805885002e-197
7.876969242310578878e-02,1.621433598290360744e-196
7.901975493873469869e-02,2.747210873302772741e-196
7.926981745436359472e-02,4.653172890450984426e-196
7.951987996999250463e-02,7.878993561100157147e-196
7.976994248562141454e-02,1.333695438992835207e-195
8.002000500125032445e-02,2.256872114928216020e-195
8.027006751687923436e-02,3.817874072158026361e-195
8.052013003250813039e-02,6.456551407488049663e-195
8.077019254813704030e-02,1.091550898988454710e-194
8.102025506376595021e-02,1.844810386173845370e-194
8.127031757939486012e-02,3.116906994182911165e-194
8.152038009502377003e-02,5.264538636208436487e-194
8.177044261065266606e-02,8.889168868246786708e-194
8.202050512628157597e-02,1.500466700210400327e-193
8.227056764191048588e-02,2.531954706557630819e-193
8.252063015753939579e-02,4.271199621247708582e-193
8.277069267316830570e-02,7.202913054118598923e-193
8.302075518879720173e-02,1.214313552423252714e-192
8.327081770442611164e-02,2.046528882374236137e-192
8.352088022005502155e-02,3.448016068733992933e-192
8.377094273568393146e-02,5.807444271659045234e-192
8.402100525131284137e-02,9.778341218666072793e-192
8.427106776694173740e-02,1.645923676022304752e-191
8.452113028257064731e-02,2.769609654154848497e-191
8.477119279819955722e-02,4.658990275996989937e-191
8.502125531382846713e-02,7.834827004531964417e-191
8.527131782945737704e-02,1.317138326510504989e-190
8.552138034508628694e-02,2.213592787458778868e-190
8.577144286071518298e-02,3.719019396621264544e-190
8.602150537634409289e-02,6.246309860307182415e-190
8.627156789197300280e-02,1.048776564647411606e-189
8.652163040760191270e-02,1.760381489047100104e-189
8.677169292323082261e-02,2.953894507387021566e-189
8.702175543885971865e-02,4.955044267688877473e-189
8.727181795448862855e-02,8.309300512490888733e-189
8.752188047011753846e-02,1.392982828154088962e-188
8.777194298574644837e-02,2.334486837471560097e-188
8.802200550137535828e-02,3.911122931737195312e-188
8.827206801700425431e-02,6.550521463479018703e-188
8.852213053263316422e-02,1.096767699991264549e-187
8.877219304826207413e-02,1.835768022646612198e-187
8.902225556389098404e-02,3.071746132784956234e-187
8.927231807951989395e-02,5.138273425939302446e-187
8.952238059514878998e-02,8.592379948547282100e-187
8.977244311077769989e-02,1.436395733596291586e-186
9.002250562640660980e-02,2.400485636998540168e-186
9.027256814203551971e-02,4.010407362682848849e-186
9.052263065766442962e-02,6.697955196709459448e-186
9.077269317329333953e-02,1.118305239617682771e-185
9.102275568892223556e-02,1.866563863748049382e-185
9.127281820455114547e-02,3.114509933971000679e-185
9.152288072018005538e-02,5.195184313938101800e-185
9.177294323580896529e-02,8.663164731082537213e-185
9.202300575143787520e-02,1.444164145665644480e-184
9.227306826706677123e-02,2.406694236384947995e-184
9.252313078269568114e-02,4.009494766466319733e-184
9.277319329832459105e-02,6.677636245699613285e-184
9.302325581395350096e-02,1.111783536801878013e-183
9.327331832958241087e-02,1.850470192928089873e-183
9.352338084521130690e-02,3.078990320360313208e-183
9.377344336084021681e-02,5.121520646919028188e-183
9.402350587646912672e-02,8.516357951649248986e-183
9.427356839209803663e-02,1.415706614536503899e-182
9.452363090772694654e-02,2.352648201252789607e-182
9.477369342335584257e-02,3.908454815059225963e-182
9.502375593898475248e-02,6.491089182764506233e-182
9.527381845461366239e-02,1.077691437844979280e-181
9.552388097024257230e-02,1.788692413042364967e-181
9.577394348587148221e-02,2.967845396568120444e-181
9.602400600150037824e-02,4.922789421979438311e-181
9.627406851712928815e-02,8.162921508791889443e-181
9.652413103275819806e-02,1.353145068782612779e-180
9.677419354838710797e-02,2.242371034887899731e-180
9.702425606401601788e-02,3.714795988802009358e-180
9.727431857964492778e-02,6.152148904053175625e-180
9.752438109527382382e-02,1.018551720144148787e-179
